wavenumber_cm-1,intensity
1155.5,1.0851246146473662e-07
1156.1273657885963,1.6716583545238514e-07
1156.7547315771924,2.561213821349224e-07
1157.3820973657887,3.9027843595986834e-07
1158.0094631543848,5.914713058302082e-07
1158.636828942981,8.915038242618606e-07
1159.2641947315772,1.3364205527398115e-06
1159.8915605201735,1.9924777805662287e-06
1160.5189263087696,2.9544335976540202e-06
1161.1462920973659,4.3569781839911185e-06
1161.773657885962,6.390383807815759e-06
1162.4010236745582,9.321781213525514e-06
1163.0283894631543,1.3523878923468612e-05
1163.6557552517506,1.951344945315396e-05
1164.2831210403467,2.8002527154320765e-05
1164.910486828943,3.996601175630153e-05
1165.537852617539,5.673026366129385e-05
1166.1652184061354,8.008832259398186e-05
1166.7925841947315,0.0001124485860380083
1167.4199499833278,0.00015702514585908675
1168.0473157719239,0.000218079487357117
1168.6746815605202,0.0003012248766154779
1169.3020473491163,0.00041380645235662353
1169.9294131377126,0.0005653717271738529
1170.5567789263087,0.0007682477919342754
1171.184144714905,0.0010382428767488504
1171.8115105035013,0.0013954908880468026
1172.4388762920973,0.001865457913852507
1173.0662420806937,0.0024801292329043128
1173.6936078692897,0.003279393810712781
1174.320973657886,0.00431264032568247
1174.9483394464821,0.005640574137088041
1175.5757052350784,0.007337257984327644
1176.2030710236745,0.009492370319844935
1176.8304368122708,0.012213663806350524
1177.457802600867,0.01562959251758583
1178.0851683894632,0.019892059757232843
1178.7125341780593,0.025179219297284356
1179.3398999666556,0.031698241575896575
1179.9672657552517,0.03968793355460649
1180.594631543848,0.04942107734079867
1181.221997332444,0.06120632942740362
1181.8493631210404,0.07538950085166503
1182.4767289096364,0.09235402033847837
1183.1040946982328,0.11252036938607599
1183.7314604868288,0.13634427221851678
1184.3588262754251,0.16431342655439513
1184.9861920640212,0.19694257511866547
1185.6135578526175,0.2347667444204482
1186.2409236412138,0.2783325178042375
1186.86828942981,0.3281872648703479
1187.4956552184062,0.3848663190418761
1188.1230210070023,0.4488781784562158
1188.7503867955986,0.5206879006277486
1189.3777525841947,0.6006989655688895
1190.005118372791,0.689233991337752
1190.632484161387,0.786514795389552
1191.2598499499834,0.8926423989247249
1191.8872157385795,1.0075776633295759
1192.5145815271758,1.1311233212164629
1193.1419473157719,1.2629082129999676
1193.7693131043682,1.4023745574535549
1194.3966788929642,1.5487690663009008
1195.0240446815606,1.7011386550768623
1195.6514104701566,1.85833140351827
1196.278776258753,2.0190032790635866
1196.906142047349,2.1816309594436873
1197.5335078359453,2.344530880095948
1198.1608736245414,2.5058843968289564
1198.7882394131377,2.663768703547977
1199.4156052017338,2.8161928903350044
1200.04297099033,2.961138281339603
1200.6703367789264,3.0966019677736987
1201.2977025675225,3.2206422615194596
1201.9250683561188,3.331424651013508
1202.5524341447149,3.427266752847068
1203.1797999333112,3.506680727009751
1203.8071657219073,3.5684116648467934
1204.4345315105036,3.611470567035043
1205.0618972990997,3.6351607009610087
1205.689263087696,3.6390963559783978
1206.316628876292,3.623213291017572
1206.9439946648884,3.587770479077157
1207.5713604534844,3.533343082396612
1208.1987262420807,3.460806924601516
1208.8260920306768,3.37131504565192
1209.4534578192731,3.266267216595793
1210.0808236078692,3.1472735402036927
1210.7081893964655,3.0161134592623036
1211.3355551850616,2.874691628456645
1211.962920973658,2.724992173674898
1212.590286762254,2.5690328632159645
1213.2176525508503,2.40882065134264
1213.8450183394464,2.2463099318159614
1214.4723841280427,2.0833646661831002
1215.0997499166388,1.9217253395950837
1215.727115705235,1.7629814581292025
1216.3544814938314,1.6085500489774134
1216.9818472824275,1.4596603712504024
1217.6092130710238,1.3173448025030592
1218.2365788596198,1.182435644864321
1218.8639446482161,1.0555674033444096
1219.4913104368122,0.9371839337074834
1220.1186762254085,0.8275497420002438
1220.7460420140046,0.7267646437871164
1221.373407802601,0.6347809574544279
1222.000773591197,0.5514224097609255
1222.6281393797933,0.47640396866876783
1223.2555051683894,0.4093518827868389
1223.8828709569857,0.349823292168621
1224.5102367455818,0.29732487514993794
1225.137602534178,0.2513301039242555
1225.7649683227742,0.21129479165835838
1226.3923341113705,0.1766707208992156
1227.0196998999666,0.14691724249905602
1227.6470656885629,0.12151082299269089
1228.274431477159,0.09995259406386563
1228.9017972657552,0.08177401920672578
1229.5291630543516,0.06654083962154991
1230.1565288429476,0.05385549425907649
1230.7838946315437,0.04335822885765681
1231.41126042014,0.03472711737354644
1232.0386262087363,0.027677218256734862
1232.6659919973324,0.021959079584663654
1233.2933577859287,0.017356793153370898
1233.9207235745248,0.013685780155054918
1234.548089363121,0.010790471766694378
1235.1754551517172,0.008542028307322518
1235.8028209403135,0.006836221770377727
1236.4301867289096,0.005591589370224324
1237.0575525175059,0.004747950811277206
1237.684918306102,0.0042653695420725325
1238.3122840946983,0.004123628254686032
1238.9396498832944,0.004322281027522182
1239.5670156718907,0.004881338244389396
1240.1943814604867,0.005842635005077417
1240.821747249083,0.007271928247025427
1241.4491130376791,0.009261761159273305
1242.0764788262754,0.011935124525375762
1242.7038446148715,0.015449932167435574
1243.3312104034678,0.020004310472187214
1243.958576192064,0.02584267893072652
1244.5859419806602,0.03326256874141947
1245.2133077692565,0.04262208908494032
1245.8406735578526,0.05434790530895589
1246.468039346449,0.06894354004777571
1247.095405135045,0.08699774791435985
1247.7227709236413,0.10919264818249
1248.3501367122374,0.13631122993506928
1248.9775025008337,0.16924377342657052
1249.6048682894298,0.20899266366880836
1250.232234078026,0.25667501208227833
1250.8595998666221,0.3135224547389901
1251.4869656552185,0.38087746706177517
1252.1143314438145,0.46018553089852365
1252.7416972324108,0.5529825166448041
1253.369063021007,0.660876706029866
1253.9964288096032,0.7855249848410193
1254.6237945981993,0.9286028822894765
1255.2511603867956,1.0917683260040416
1255.8785261753917,1.2766192173969662
1256.505891963988,1.4846452071754632
1257.133257752584,1.7171743577345513
1257.7606235411804,1.975315707540757
1258.3879893297765,2.2598990887493047
1259.0153551183728,2.5714138768175117
1259.6427209069689,2.9099486512163564
1260.2700866955652,3.2751339996634914
1260.8974524841615,3.6660908844749214
1261.5248182727576,4.081387089580045
1262.1521840613539,4.519004263689215
1262.77954984995,4.976317956032737
1263.4069156385463,5.450092798010099
1264.0342814271423,5.936494615121911
1264.6616472157386,6.431120763852274
1265.2890130043347,6.929049390214799
1265.916378792931,7.4249076204435145
1266.543744581527,7.912957946568664
1267.1711103701234,8.387201293074861
1267.7984761587195,8.841494482442236
1268.4258419473158,9.269679096550936
1269.0532077359119,9.665718097170283
1269.6805735245082,10.023836059357556
1270.3079393131043,10.338658519076446
1270.9353051017006,10.605345766362504
1271.5626708902967,10.819716444620193
1272.190036678893,10.978356551628535
1272.817402467489,11.078709873907144
1273.4447682560854,11.11914650747358
1274.0721340446814,11.099006898332682
1274.6994998332777,11.01861973973735
1275.3268656218738,10.879293047542298
1275.9542314104701,10.68327875228562
1276.5815971990664,10.433712147456506
1277.2089629876625,10.134528469198212
1277.8363287762588,9.790359708769932
1278.463694564855,9.406415437214877
1279.0910603534512,8.988351922224105
1279.7184261420473,8.54213412071469
1280.3457919306436,8.073895228730871
1280.9731577192397,7.58979836575947
1281.600523507836,7.095904676813687
1282.227889296432,6.598051675550615
1282.8552550850284,6.101745055672591
1283.4826208736245,5.612066501912053
1284.1099866622208,5.13359927500952
1284.7373524508168,4.670372567006307
1285.3647182394132,4.225824861870837
1285.9920840280092,3.8027858263126655
1286.6194498166055,3.403475625482373
1287.2468156052016,3.0295200304732877
1287.874181393798,2.681979274128137
1288.501547182394,2.3613883262232473
1289.1289129709903,2.067806099024244
1289.7562787595866,1.8008710534658392
1290.3836445481827,1.5598607432942575
1291.0110103367788,1.3437529937960593
1291.638376125375,1.1512866447328869
1292.2657419139714,0.981020073898128
1292.8931077025675,0.8313860382362159
1293.5204734911638,0.7007417046212416
1294.1478392797599,0.587413074981771
1294.7752050683562,0.4897333258664166
1295.4025708569523,0.40607486917169755
1296.0299366455486,0.3348751901824175
1296.6573024341446,0.2746567260725933
1297.284668222741,0.22404121027624985
1297.912034011337,0.18175902596661955
1298.5393997999333,0.14665418770852992
1299.1667655885294,0.11768560825464622
1299.7941313771257,0.09392531264282371
1300.4214971657218,0.07455424007482052
1301.048862954318,0.058856231574576895
1301.6762287429142,0.04621074404875842
1302.3035945315105,0.03608476456980088
1302.9309603201066,0.02802432729998296
1303.5583261087029,0.02164596352890208
1304.185691897299,0.016628346039508916
1304.8130576858953,0.0127043248596963
1305.4404234744916,0.009653494038931594
1306.0677892630877,0.007295379365465236
1306.6951550516837,0.00548329528052291
1307.32252084028,0.00409888555308469
1307.9498866288764,0.0030473360997141023
1308.5772524174724,0.0022532289686119627
1309.2046182060687,0.0016569931047233529
1309.8319839946648,0.001211899152430408
1310.4593497832611,0.0008815413082422982
1311.0867155718572,0.0006377482260569843
1311.7140813604535,0.000458866398010964
1312.3414471490496,0.00032836257949661444
1312.968812937646,0.00023369610095558713
1313.596178726242,0.0001654168246970676
1314.2235445148383,0.00011644967982787348
1314.8509103034344,8.153185494121207e-05
1315.4782760920307,5.677364174208911e-05
1316.1056418806268,3.9318468043774824e-05
1316.733007669223,2.7081756500373585e-05
1317.3603734578192,1.855186071912672e-05
1317.9877392464155,1.2639460202410626e-05
1318.6151050350118,8.564459971979748e-06
1319.2424708236078,5.771674712004055e-06
1319.869836612204,3.8684244062463145e-06
1320.4972024008002,2.5786760589639444e-06
1321.1245681893965,1.7095817270936545e-06
1321.7519339779926,1.1272321106486078e-06
1322.379299766589,7.392089928914013e-07
1323.006665555185,4.821159916198928e-07
1323.6340313437813,3.1272761880958044e-07
1324.2613971323774,2.0174897847178148e-07
1324.8887629209737,1.2944546986471604e-07
1325.5161287095698,8.260242048812536e-08
1326.143494498166,5.2423872219011994e-08
1326.7708602867622,3.3089928186947633e-08
1327.3982260753585,2.0772700445513384e-08
1328.0255918639546,1.2969418296598352e-08
1328.6529576525509,8.053384643734594e-09
1329.280323441147,4.97355348206723e-09
1329.9076892297433,3.0548194565207188e-09
1330.5350550183393,1.866099124416541e-09
1331.1624208069356,1.1337421046400832e-09
1331.7897865955317,6.850531185394909e-10
1332.417152384128,4.1168460346984285e-10
1333.044518172724,2.460568206824305e-10
1333.6718839613204,1.4626371384895527e-10
1334.2992497499167,8.647054386252659e-11
1334.9266155385128,5.084288546235917e-11
1335.5539813271089,2.9731895297693874e-11
1336.1813471157052,1.7292007095520214e-11
1336.8087129043015,1.0002271087121071e-11
1337.4360786928976,5.754164086465944e-12
1338.063444481494,3.2922762484047237e-12
1338.69081027009,1.8734439359246046e-12
1339.3181760586863,1.060267718275023e-12
1339.9455418472824,5.967889618802781e-13
1340.5729076358787,3.340845797662715e-13
1341.2002734244747,1.8600408600758503e-13
1341.827639213071,1.0299566456250126e-13
1342.4550050016671,5.672125210312254e-14
1343.0823707902634,3.1067269132880786e-14
1343.7097365788595,1.6923522208563942e-14
1344.3371023674558,9.16872267958683e-15
1344.964468156052,4.940345521800112e-15
1345.5918339446482,2.6475015095247818e-15
1346.2191997332443,1.4110601084383377e-15
1346.8465655218406,7.479717882176215e-16
1347.4739313104367,3.9432592102967153e-16
1348.101297099033,2.0675491414316404e-16
1348.728662887629,1.0781688007427688e-16
1349.3560286762254,5.591754366941219e-17
1349.9833944648217,2.8842959242351567e-17
1350.6107602534178,1.4796600641736643e-17
1351.2381260420138,7.549435761464472e-18
1351.8654918306102,3.8308702347246604e-18
1352.4928576192065,1.9333513842171803e-18
1353.1202234078025,9.70408410111377e-19
1353.7475891963988,4.844274174608007e-19
1354.374954984995,2.4051008078565297e-19
1355.0023207735912,1.1875947215462527e-19
1355.6296865621873,5.832216517816565e-20
1356.2570523507836,2.84858657992289e-20
1356.8844181393797,1.3837435667742376e-20
1357.511783927976,6.685166236741068e-21
1358.139149716572,3.21217511247477e-21
1358.7665155051684,1.5350291256068755e-21
1359.3938812937645,7.295657422691127e-22
1360.0212470823608,3.44859862839562e-22
1360.6486128709569,1.6212547996870228e-22
1361.2759786595532,7.580368250674174e-23
1361.9033444481493,3.525005010041969e-23
1362.5307102367456,1.6302701572121442e-23
1363.1580760253419,7.49876639100916e-24
1363.785441813938,3.43044511498304e-24
1364.412807602534,1.5607794266055051e-24
1365.0401733911303,7.062573714829157e-25
1365.6675391797266,3.1784461740771126e-25
1366.2949049683227,1.422646940132471e-25
1366.922270756919,6.333004731548337e-26
1367.549636545515,2.803837864299312e-26
1368.1770023341114,1.2346003213878121e-26
1368.8043681227075,5.406675198545271e-27
1369.4317339113038,2.3548572237329686e-27
1370.0590996999,1.0200683822233173e-27
1370.6864654884962,4.394651063774961e-28
1371.3138312770923,1.8829982412826343e-28
1371.9411970656886,8.02427560161956e-29
1372.5685628542847,3.4008867034422205e-29
1373.195928642881,1.4335369688506738e-29
1373.823294431477,6.009744875622522e-30
1374.4506602200734,2.505726002909713e-30
1375.0780260086694,1.0390621603586736e-30
1375.7053917972657,4.28528671335099e-31
1376.3327575858618,1.7577157522101458e-31
1376.9601233744581,7.170473096885064e-32
1377.5874891630542,2.909225476466984e-32
1378.2148549516505,1.1739169110057178e-32
1378.8422207402468,4.711158777649087e-33
1379.469586528843,1.8803925812048937e-33
1380.096952317439,7.464482811955589e-34
1380.7243181060353,2.9470080427259146e-34
1381.3516838946316,1.1571597668458333e-34
1381.9790496832277,4.5189312589876047e-35
1382.606415471824,1.755127011712051e-35
1383.23378126042,6.77972019878787e-36
1383.8611470490164,2.6046261522431738e-36
1384.4885128376125,9.95197848435482e-37
1385.1158786262088,3.781846221497438e-37
1385.7432444148048,1.4293174897855927e-37
1386.3706102034012,5.372593173789323e-38
1386.9979759919972,2.0084897022464104e-38
1387.6253417805935,7.467679462398342e-39
1388.2527075691896,2.7614178809760367e-39
1388.880073357786,1.0155679872178858e-39
1389.507439146382,3.714636124551606e-40
1390.1348049349783,1.351306789069335e-40
1390.7621707235744,4.88902260150579e-41
1391.3895365121707,1.759221551366505e-41
1392.0169023007668,6.295778409988008e-42
1392.644268089363,2.240829104638515e-42
1393.2716338779592,7.932287468275583e-43
1393.8989996665555,2.7926631755670678e-43
1394.5263654551518,9.778428791621428e-44
1395.1537312437479,3.4052578444603457e-44
1395.781097032344,1.1794005666414185e-44
1396.4084628209403,4.0625906775739467e-45
1397.0358286095366,1.3917947968841762e-45
1397.6631943981326,4.742176947707691e-46
1398.290560186729,1.6069808705163683e-46
1398.917925975325,5.415942742760604e-47
1399.5452917639213,1.8153811732927017e-47
1400.1726575525174,6.051903515817047e-48
1400.8000233411137,2.0065342136879947e-48
1401.4273891297098,6.616549236655803e-49
1402.0547549183061,2.169936041982665e-49
1402.6821207069022,7.077709342913886e-50
1403.3094864954985,2.295984333879643e-50
1403.9368522840946,7.407566049728724e-51
1404.564218072691,2.3769095423948362e-51
1405.191583861287,7.58544860758e-52
1405.8189496498833,2.4076408044842644e-52
1406.4463154384794,7.602420864104827e-53
1407.0736812270757,2.394364236134892e-53
1407.701047015672,7.724471705475631e-54
1408.328412804268,3.2061704297035436e-54
1408.9557785928641,3.6013904551929517e-54
1409.5831443814604,9.50484734145416e-54
1410.2105101700568,2.9770236841682447e-53
1410.8378759586528,9.452161936574486e-53
1411.4652417472491,2.9902769046350267e-52
1412.0926075358452,9.410195657288429e-52
1412.7199733244415,2.945259874847266e-51
1413.3473391130376,9.168107400032274e-51
1413.974704901634,2.8383518828480405e-50
1414.60207069023,8.739431673322355e-50
1415.2294364788263,2.676273863963629e-49
1415.8568022674224,8.15095170550193e-49
1416.4841680560187,2.4689738633692366e-48
1417.1115338446148,7.437981100917702e-48
1417.738899633211,2.2285585778012174e-47
1418.3662654218072,6.640846517655383e-47
1418.9936312104035,1.968127535347405e-46
1419.6209969989995,5.801141213503604e-46
1420.2483627875959,1.7006073146588e-45
1420.8757285761922,4.958211560193898e-45
1421.5030943647882,1.437727136388653e-44
1422.1304601533843,4.146276800459158e-44
1422.7578259419806,1.1892427677032789e-43
1423.385191730577,3.3924476270702184e-43
1424.012557519173,9.624677581076471e-43
1424.639923307769,2.7157490331102273e-42
1425.2672890963654,7.621202175087052e-42
1425.8946548849617,2.1270991661902802e-41
1426.5220206735578,5.90449008203055e-41
1427.1493864621539,1.6300745352605945e-40
1427.7767522507502,4.475720254408559e-40
1428.4041180393465,1.2222183802217561e-39
1429.0314838279426,3.319442059629233e-39
1429.6588496165389,8.966269326362175e-39
1430.286215405135,2.4087341662971876e-38
1430.9135811937313,6.435708594430955e-38
1431.5409469823273,1.710150277090505e-37
1432.1683127709236,4.519626895843179e-37
1432.7956785595197,1.1879585817816868e-36
1433.423044348116,3.1054920334493424e-36
1434.0504101367121,8.074022312022439e-36
1434.6777759253084,2.087756653546685e-35
1435.3051417139045,5.369084179224998e-35
1435.9325075025008,1.3732542610296463e-34
1436.5598732910971,3.493269587184645e-34
1437.1872390796932,8.837789555282687e-34
1437.8146048682893,2.223748225453056e-33
1438.4419706568856,5.5649078674742146e-33
1439.069336445482,1.3850349995140746e-32
1439.696702234078,3.4284192350424254e-32
1440.324068022674,8.440292617183321e-32
1440.9514338112704,2.066576513676898e-31
1441.5787995998667,5.032408425273216e-31
1442.2061653884628,1.2187950385409585e-30
1442.8335311770588,2.9357284390119974e-30
1443.4608969656551,7.032852155145424e-30
1444.0882627542514,1.675627583873788e-29
1444.7156285428475,3.970579717216469e-29
1445.3429943314438,9.357519568182556e-29
1445.97036012004,2.1932996718727966e-28
1446.5977259086362,5.112880104868901e-28
1447.2250916972323,1.1853965240628615e-27
1447.8524574858286,2.7333301729469354e-27
1448.4798232744247,6.2683169376139036e-27
1449.107189063021,1.429684484647445e-26
1449.734554851617,3.2430964633727e-26
1450.3619206402134,7.316610476791643e-26
1450.9892864288095,1.6416871847571688e-25
1451.6166522174058,3.663542946132199e-25
1452.244018006002,8.130973981144383e-25
1452.8713837945982,1.7947925625748823e-24
1453.4987495831942,3.940182669946067e-24
1454.1261153717905,8.60297889183865e-24
1454.7534811603869,1.868150083210237e-23
1455.380846948983,4.034642652006015e-23
1456.008212737579,8.666201696321388e-23
1456.6355785261753,1.8513260631795327e-22
1457.2629443147716,3.9333939311801743e-22
1457.8903101033677,8.311556797449971e-22
1458.517675891964,1.7467377897975778e-21
1459.14504168056,3.6509296170062055e-21
1459.7724074691564,7.589437881750864e-21
1460.3997732577525,1.5690838998691594e-20
1461.0271390463488,3.226362247029874e-20
1461.6545048349449,6.597972386421816e-20
1462.2818706235412,1.341955966326075e-19
